July 1, 2025   13:51:56
Cyclic Voltammetry
File: d:\serah 3rd year\02-09-25 l-lysine stability\ferro mod 9 cyclesre.csv
Data Source:  Experiment
Instrument Model:  CHI760D
Header: 
Note: 

Init E (V) = -0.2
High E (V) = 0.6
Low E (V) = -0.2
Init P/N = P
Scan Rate (V/s) = 0.05
Segment = 2
Sample Interval (V) = 0.001
Quiet Time (sec) = 2
Sensitivity (A/V) = 1e-4

Results:

Channel 1:
Segment 1:

Segment 2:

Potential/V, Current/A

-0.200, -1.136e-6
-0.199, -2.880e-7
-0.198, 1.169e-7
-0.197, 2.793e-7
-0.196, 4.005e-7
-0.195, 4.712e-7
-0.194, 5.429e-7
-0.193, 6.296e-7
-0.192, 6.713e-7
-0.191, 7.193e-7
-0.190, 7.895e-7
-0.189, 8.219e-7
-0.188, 8.681e-7
-0.187, 9.302e-7
-0.186, 9.626e-7
-0.185, 9.846e-7
-0.184, 1.030e-6
-0.183, 1.060e-6
-0.182, 1.090e-6
-0.181, 1.134e-6
-0.180, 1.171e-6
-0.179, 1.192e-6
-0.178, 1.217e-6
-0.177, 1.264e-6
-0.176, 1.269e-6
-0.175, 1.291e-6
-0.174, 1.335e-6
-0.173, 1.353e-6
-0.172, 1.369e-6
-0.171, 1.414e-6
-0.170, 1.424e-6
-0.169, 1.430e-6
-0.168, 1.471e-6
-0.167, 1.491e-6
-0.166, 1.498e-6
-0.165, 1.516e-6
-0.164, 1.546e-6
-0.163, 1.549e-6
-0.162, 1.578e-6
-0.161, 1.611e-6
-0.160, 1.612e-6
-0.159, 1.618e-6
-0.158, 1.651e-6
-0.157, 1.653e-6
-0.156, 1.663e-6
-0.155, 1.693e-6
-0.154, 1.705e-6
-0.153, 1.718e-6
-0.152, 1.740e-6
-0.151, 1.748e-6
-0.150, 1.736e-6
-0.149, 1.768e-6
-0.148, 1.787e-6
-0.147, 1.787e-6
-0.146, 1.796e-6
-0.145, 1.818e-6
-0.144, 1.822e-6
-0.143, 1.825e-6
-0.142, 1.861e-6
-0.141, 1.851e-6
-0.140, 1.849e-6
-0.139, 1.881e-6
-0.138, 1.882e-6
-0.137, 1.889e-6
-0.136, 1.911e-6
-0.135, 1.914e-6
-0.134, 1.919e-6
-0.133, 1.932e-6
-0.132, 1.947e-6
-0.131, 1.934e-6
-0.130, 1.940e-6
-0.129, 1.970e-6
-0.128, 1.962e-6
-0.127, 1.966e-6
-0.126, 1.991e-6
-0.125, 1.982e-6
-0.124, 1.983e-6
-0.123, 2.006e-6
-0.122, 1.999e-6
-0.121, 2.003e-6
-0.120, 2.019e-6
-0.119, 2.027e-6
-0.118, 2.021e-6
-0.117, 2.031e-6
-0.116, 2.048e-6
-0.115, 2.041e-6
-0.114, 2.045e-6
-0.113, 2.069e-6
-0.112, 2.048e-6
-0.111, 2.057e-6
-0.110, 2.080e-6
-0.109, 2.067e-6
-0.108, 2.078e-6
-0.107, 2.088e-6
-0.106, 2.088e-6
-0.105, 2.082e-6
-0.104, 2.102e-6
-0.103, 2.106e-6
-0.102, 2.129e-6
-0.101, 2.116e-6
-0.100, 2.125e-6
-0.099, 2.114e-6
-0.098, 2.106e-6
-0.097, 2.136e-6
-0.096, 2.129e-6
-0.095, 2.127e-6
-0.094, 2.147e-6
-0.093, 2.136e-6
-0.092, 2.133e-6
-0.091, 2.151e-6
-0.090, 2.140e-6
-0.089, 2.137e-6
-0.088, 2.150e-6
-0.087, 2.162e-6
-0.086, 2.148e-6
-0.085, 2.158e-6
-0.084, 2.171e-6
-0.083, 2.156e-6
-0.082, 2.165e-6
-0.081, 2.183e-6
-0.080, 2.163e-6
-0.079, 2.162e-6
-0.078, 2.185e-6
-0.077, 2.177e-6
-0.076, 2.182e-6
-0.075, 2.189e-6
-0.074, 2.182e-6
-0.073, 2.175e-6
-0.072, 2.193e-6
-0.071, 2.201e-6
-0.070, 2.188e-6
-0.069, 2.191e-6
-0.068, 2.206e-6
-0.067, 2.194e-6
-0.066, 2.193e-6
-0.065, 2.213e-6
-0.064, 2.201e-6
-0.063, 2.197e-6
-0.062, 2.214e-6
-0.061, 2.201e-6
-0.060, 2.196e-6
-0.059, 2.215e-6
-0.058, 2.214e-6
-0.057, 2.215e-6
-0.056, 2.217e-6
-0.055, 2.219e-6
-0.054, 2.217e-6
-0.053, 2.218e-6
-0.052, 2.231e-6
-0.051, 2.226e-6
-0.050, 2.223e-6
-0.049, 2.239e-6
-0.048, 2.222e-6
-0.047, 2.215e-6
-0.046, 2.237e-6
-0.045, 2.232e-6
-0.044, 2.229e-6
-0.043, 2.238e-6
-0.042, 2.236e-6
-0.041, 2.220e-6
-0.040, 2.229e-6
-0.039, 2.246e-6
-0.038, 2.229e-6
-0.037, 2.240e-6
-0.036, 2.249e-6
-0.035, 2.234e-6
-0.034, 2.238e-6
-0.033, 2.250e-6
-0.032, 2.240e-6
-0.031, 2.239e-6
-0.030, 2.255e-6
-0.029, 2.241e-6
-0.028, 2.240e-6
-0.027, 2.248e-6
-0.026, 2.244e-6
-0.025, 2.250e-6
-0.024, 2.255e-6
-0.023, 2.258e-6
-0.022, 2.242e-6
-0.021, 2.251e-6
-0.020, 2.252e-6
-0.019, 2.253e-6
-0.018, 2.256e-6
-0.017, 2.266e-6
-0.016, 2.247e-6
-0.015, 2.257e-6
-0.014, 2.272e-6
-0.013, 2.261e-6
-0.012, 2.249e-6
-0.011, 2.268e-6
-0.010, 2.263e-6
-0.009, 2.258e-6
-0.008, 2.270e-6
-0.007, 2.271e-6
-0.006, 2.262e-6
-0.005, 2.260e-6
-0.004, 2.277e-6
-0.003, 2.263e-6
-0.002, 2.266e-6
-0.001, 2.284e-6
-0.000, 2.302e-6
0.001, 2.299e-6
0.002, 2.294e-6
0.003, 2.283e-6
0.004, 2.281e-6
0.005, 2.289e-6
0.006, 2.282e-6
0.007, 2.284e-6
0.008, 2.295e-6
0.009, 2.288e-6
0.010, 2.281e-6
0.011, 2.288e-6
0.012, 2.295e-6
0.013, 2.286e-6
0.014, 2.282e-6
0.015, 2.302e-6
0.016, 2.291e-6
0.017, 2.295e-6
0.018, 2.321e-6
0.019, 2.294e-6
0.020, 2.295e-6
0.021, 2.317e-6
0.022, 2.315e-6
0.023, 2.303e-6
0.024, 2.313e-6
0.025, 2.313e-6
0.026, 2.318e-6
0.027, 2.325e-6
0.028, 2.333e-6
0.029, 2.323e-6
0.030, 2.318e-6
0.031, 2.340e-6
0.032, 2.334e-6
0.033, 2.324e-6
0.034, 2.346e-6
0.035, 2.333e-6
0.036, 2.335e-6
0.037, 2.354e-6
0.038, 2.350e-6
0.039, 2.341e-6
0.040, 2.354e-6
0.041, 2.364e-6
0.042, 2.352e-6
0.043, 2.362e-6
0.044, 2.375e-6
0.045, 2.374e-6
0.046, 2.370e-6
0.047, 2.390e-6
0.048, 2.378e-6
0.049, 2.375e-6
0.050, 2.395e-6
0.051, 2.399e-6
0.052, 2.403e-6
0.053, 2.411e-6
0.054, 2.409e-6
0.055, 2.398e-6
0.056, 2.415e-6
0.057, 2.427e-6
0.058, 2.420e-6
0.059, 2.423e-6
0.060, 2.438e-6
0.061, 2.433e-6
0.062, 2.442e-6
0.063, 2.456e-6
0.064, 2.447e-6
0.065, 2.455e-6
0.066, 2.475e-6
0.067, 2.459e-6
0.068, 2.466e-6
0.069, 2.484e-6
0.070, 2.485e-6
0.071, 2.488e-6
0.072, 2.502e-6
0.073, 2.510e-6
0.074, 2.505e-6
0.075, 2.517e-6
0.076, 2.530e-6
0.077, 2.530e-6
0.078, 2.536e-6
0.079, 2.549e-6
0.080, 2.546e-6
0.081, 2.551e-6
0.082, 2.579e-6
0.083, 2.577e-6
0.084, 2.584e-6
0.085, 2.598e-6
0.086, 2.602e-6
0.087, 2.605e-6
0.088, 2.627e-6
0.089, 2.633e-6
0.090, 2.638e-6
0.091, 2.644e-6
0.092, 2.666e-6
0.093, 2.656e-6
0.094, 2.668e-6
0.095, 2.699e-6
0.096, 2.700e-6
0.097, 2.702e-6
0.098, 2.729e-6
0.099, 2.732e-6
0.100, 2.736e-6
0.101, 2.759e-6
0.102, 2.782e-6
0.103, 2.808e-6
0.104, 2.805e-6
0.105, 2.816e-6
0.106, 2.816e-6
0.107, 2.838e-6
0.108, 2.860e-6
0.109, 2.867e-6
0.110, 2.878e-6
0.111, 2.904e-6
0.112, 2.909e-6
0.113, 2.916e-6
0.114, 2.952e-6
0.115, 2.951e-6
0.116, 2.965e-6
0.117, 2.991e-6
0.118, 3.002e-6
0.119, 3.015e-6
0.120, 3.042e-6
0.121, 3.053e-6
0.122, 3.064e-6
0.123, 3.088e-6
0.124, 3.114e-6
0.125, 3.117e-6
0.126, 3.141e-6
0.127, 3.174e-6
0.128, 3.182e-6
0.129, 3.198e-6
0.130, 3.226e-6
0.131, 3.228e-6
0.132, 3.251e-6
0.133, 3.282e-6
0.134, 3.301e-6
0.135, 3.315e-6
0.136, 3.351e-6
0.137, 3.369e-6
0.138, 3.381e-6
0.139, 3.408e-6
0.140, 3.438e-6
0.141, 3.447e-6
0.142, 3.468e-6
0.143, 3.504e-6
0.144, 3.506e-6
0.145, 3.539e-6
0.146, 3.580e-6
0.147, 3.587e-6
0.148, 3.609e-6
0.149, 3.640e-6
0.150, 3.656e-6
0.151, 3.670e-6
0.152, 3.703e-6
0.153, 3.727e-6
0.154, 3.754e-6
0.155, 3.775e-6
0.156, 3.805e-6
0.157, 3.817e-6
0.158, 3.843e-6
0.159, 3.885e-6
0.160, 3.898e-6
0.161, 3.922e-6
0.162, 3.953e-6
0.163, 3.968e-6
0.164, 3.987e-6
0.165, 4.020e-6
0.166, 4.041e-6
0.167, 4.050e-6
0.168, 4.091e-6
0.169, 4.117e-6
0.170, 4.122e-6
0.171, 4.159e-6
0.172, 4.188e-6
0.173, 4.196e-6
0.174, 4.225e-6
0.175, 4.262e-6
0.176, 4.269e-6
0.177, 4.290e-6
0.178, 4.336e-6
0.179, 4.351e-6
0.180, 4.376e-6
0.181, 4.407e-6
0.182, 4.418e-6
0.183, 4.433e-6
0.184, 4.470e-6
0.185, 4.497e-6
0.186, 4.513e-6
0.187, 4.533e-6
0.188, 4.565e-6
0.189, 4.572e-6
0.190, 4.594e-6
0.191, 4.635e-6
0.192, 4.646e-6
0.193, 4.658e-6
0.194, 4.690e-6
0.195, 4.706e-6
0.196, 4.721e-6
0.197, 4.760e-6
0.198, 4.775e-6
0.199, 4.794e-6
0.200, 4.827e-6
0.201, 4.843e-6
0.202, 4.860e-6
0.203, 4.878e-6
0.204, 4.909e-6
0.205, 4.927e-6
0.206, 4.939e-6
0.207, 4.969e-6
0.208, 4.980e-6
0.209, 5.001e-6
0.210, 5.034e-6
0.211, 5.044e-6
0.212, 5.058e-6
0.213, 5.090e-6
0.214, 5.101e-6
0.215, 5.120e-6
0.216, 5.145e-6
0.217, 5.161e-6
0.218, 5.170e-6
0.219, 5.196e-6
0.220, 5.225e-6
0.221, 5.227e-6
0.222, 5.248e-6
0.223, 5.286e-6
0.224, 5.301e-6
0.225, 5.312e-6
0.226, 5.348e-6
0.227, 5.356e-6
0.228, 5.366e-6
0.229, 5.394e-6
0.230, 5.419e-6
0.231, 5.431e-6
0.232, 5.449e-6
0.233, 5.471e-6
0.234, 5.477e-6
0.235, 5.499e-6
0.236, 5.524e-6
0.237, 5.533e-6
0.238, 5.551e-6
0.239, 5.587e-6
0.240, 5.588e-6
0.241, 5.607e-6
0.242, 5.639e-6
0.243, 5.642e-6
0.244, 5.657e-6
0.245, 5.689e-6
0.246, 5.698e-6
0.247, 5.711e-6
0.248, 5.739e-6
0.249, 5.760e-6
0.250, 5.765e-6
0.251, 5.788e-6
0.252, 5.816e-6
0.253, 5.821e-6
0.254, 5.839e-6
0.255, 5.872e-6
0.256, 5.891e-6
0.257, 5.905e-6
0.258, 5.924e-6
0.259, 5.934e-6
0.260, 5.944e-6
0.261, 5.982e-6
0.262, 5.986e-6
0.263, 6.001e-6
0.264, 6.024e-6
0.265, 6.040e-6
0.266, 6.049e-6
0.267, 6.069e-6
0.268, 6.098e-6
0.269, 6.093e-6
0.270, 6.121e-6
0.271, 6.149e-6
0.272, 6.155e-6
0.273, 6.170e-6
0.274, 6.203e-6
0.275, 6.202e-6
0.276, 6.224e-6
0.277, 6.255e-6
0.278, 6.268e-6
0.279, 6.273e-6
0.280, 6.304e-6
0.281, 6.323e-6
0.282, 6.336e-6
0.283, 6.355e-6
0.284, 6.381e-6
0.285, 6.384e-6
0.286, 6.404e-6
0.287, 6.436e-6
0.288, 6.440e-6
0.289, 6.450e-6
0.290, 6.484e-6
0.291, 6.492e-6
0.292, 6.504e-6
0.293, 6.531e-6
0.294, 6.546e-6
0.295, 6.561e-6
0.296, 6.579e-6
0.297, 6.604e-6
0.298, 6.610e-6
0.299, 6.632e-6
0.300, 6.658e-6
0.301, 6.667e-6
0.302, 6.675e-6
0.303, 6.712e-6
0.304, 6.717e-6
0.305, 6.735e-6
0.306, 6.769e-6
0.307, 6.785e-6
0.308, 6.816e-6
0.309, 6.828e-6
0.310, 6.835e-6
0.311, 6.841e-6
0.312, 6.875e-6
0.313, 6.891e-6
0.314, 6.902e-6
0.315, 6.926e-6
0.316, 6.947e-6
0.317, 6.951e-6
0.318, 6.975e-6
0.319, 7.003e-6
0.320, 7.004e-6
0.321, 7.024e-6
0.322, 7.055e-6
0.323, 7.065e-6
0.324, 7.072e-6
0.325, 7.106e-6
0.326, 7.114e-6
0.327, 7.135e-6
0.328, 7.154e-6
0.329, 7.171e-6
0.330, 7.186e-6
0.331, 7.207e-6
0.332, 7.236e-6
0.333, 7.242e-6
0.334, 7.266e-6
0.335, 7.294e-6
0.336, 7.291e-6
0.337, 7.320e-6
0.338, 7.345e-6
0.339, 7.353e-6
0.340, 7.365e-6
0.341, 7.402e-6
0.342, 7.416e-6
0.343, 7.420e-6
0.344, 7.452e-6
0.345, 7.473e-6
0.346, 7.485e-6
0.347, 7.505e-6
0.348, 7.530e-6
0.349, 7.534e-6
0.350, 7.562e-6
0.351, 7.588e-6
0.352, 7.595e-6
0.353, 7.606e-6
0.354, 7.641e-6
0.355, 7.650e-6
0.356, 7.663e-6
0.357, 7.695e-6
0.358, 7.707e-6
0.359, 7.728e-6
0.360, 7.755e-6
0.361, 7.777e-6
0.362, 7.784e-6
0.363, 7.801e-6
0.364, 7.826e-6
0.365, 7.838e-6
0.366, 7.859e-6
0.367, 7.892e-6
0.368, 7.897e-6
0.369, 7.910e-6
0.370, 7.947e-6
0.371, 7.953e-6
0.372, 7.967e-6
0.373, 7.994e-6
0.374, 8.011e-6
0.375, 8.017e-6
0.376, 8.049e-6
0.377, 8.070e-6
0.378, 8.079e-6
0.379, 8.095e-6
0.380, 8.126e-6
0.381, 8.133e-6
0.382, 8.152e-6
0.383, 8.189e-6
0.384, 8.201e-6
0.385, 8.213e-6
0.386, 8.248e-6
0.387, 8.253e-6
0.388, 8.267e-6
0.389, 8.297e-6
0.390, 8.316e-6
0.391, 8.330e-6
0.392, 8.356e-6
0.393, 8.379e-6
0.394, 8.382e-6
0.395, 8.407e-6
0.396, 8.437e-6
0.397, 8.439e-6
0.398, 8.461e-6
0.399, 8.491e-6
0.400, 8.501e-6
0.401, 8.523e-6
0.402, 8.550e-6
0.403, 8.560e-6
0.404, 8.580e-6
0.405, 8.608e-6
0.406, 8.616e-6
0.407, 8.633e-6
0.408, 8.664e-6
0.409, 8.687e-6
0.410, 8.711e-6
0.411, 8.728e-6
0.412, 8.751e-6
0.413, 8.758e-6
0.414, 8.780e-6
0.415, 8.810e-6
0.416, 8.819e-6
0.417, 8.837e-6
0.418, 8.875e-6
0.419, 8.876e-6
0.420, 8.892e-6
0.421, 8.927e-6
0.422, 8.938e-6
0.423, 8.952e-6
0.424, 8.981e-6
0.425, 9.007e-6
0.426, 9.013e-6
0.427, 9.032e-6
0.428, 9.062e-6
0.429, 9.073e-6
0.430, 9.090e-6
0.431, 9.121e-6
0.432, 9.125e-6
0.433, 9.142e-6
0.434, 9.181e-6
0.435, 9.192e-6
0.436, 9.210e-6
0.437, 9.239e-6
0.438, 9.251e-6
0.439, 9.268e-6
0.440, 9.303e-6
0.441, 9.322e-6
0.442, 9.336e-6
0.443, 9.362e-6
0.444, 9.392e-6
0.445, 9.395e-6
0.446, 9.414e-6
0.447, 9.449e-6
0.448, 9.457e-6
0.449, 9.475e-6
0.450, 9.510e-6
0.451, 9.522e-6
0.452, 9.538e-6
0.453, 9.568e-6
0.454, 9.580e-6
0.455, 9.597e-6
0.456, 9.628e-6
0.457, 9.649e-6
0.458, 9.658e-6
0.459, 9.686e-6
0.460, 9.713e-6
0.461, 9.732e-6
0.462, 9.746e-6
0.463, 9.780e-6
0.464, 9.789e-6
0.465, 9.804e-6
0.466, 9.843e-6
0.467, 9.859e-6
0.468, 9.878e-6
0.469, 9.905e-6
0.470, 9.921e-6
0.471, 9.934e-6
0.472, 9.968e-6
0.473, 9.986e-6
0.474, 9.994e-6
0.475, 1.002e-5
0.476, 1.005e-5
0.477, 1.006e-5
0.478, 1.008e-5
0.479, 1.012e-5
0.480, 1.012e-5
0.481, 1.015e-5
0.482, 1.018e-5
0.483, 1.019e-5
0.484, 1.021e-5
0.485, 1.025e-5
0.486, 1.025e-5
0.487, 1.028e-5
0.488, 1.030e-5
0.489, 1.032e-5
0.490, 1.034e-5
0.491, 1.036e-5
0.492, 1.040e-5
0.493, 1.041e-5
0.494, 1.043e-5
0.495, 1.047e-5
0.496, 1.048e-5
0.497, 1.049e-5
0.498, 1.053e-5
0.499, 1.054e-5
0.500, 1.056e-5
0.501, 1.059e-5
0.502, 1.061e-5
0.503, 1.062e-5
0.504, 1.066e-5
0.505, 1.068e-5
0.506, 1.068e-5
0.507, 1.071e-5
0.508, 1.075e-5
0.509, 1.076e-5
0.510, 1.078e-5
0.511, 1.082e-5
0.512, 1.085e-5
0.513, 1.087e-5
0.514, 1.089e-5
0.515, 1.090e-5
0.516, 1.092e-5
0.517, 1.096e-5
0.518, 1.097e-5
0.519, 1.098e-5
0.520, 1.102e-5
0.521, 1.104e-5
0.522, 1.105e-5
0.523, 1.108e-5
0.524, 1.111e-5
0.525, 1.112e-5
0.526, 1.115e-5
0.527, 1.118e-5
0.528, 1.119e-5
0.529, 1.122e-5
0.530, 1.126e-5
0.531, 1.127e-5
0.532, 1.129e-5
0.533, 1.132e-5
0.534, 1.134e-5
0.535, 1.136e-5
0.536, 1.139e-5
0.537, 1.141e-5
0.538, 1.144e-5
0.539, 1.146e-5
0.540, 1.149e-5
0.541, 1.150e-5
0.542, 1.153e-5
0.543, 1.156e-5
0.544, 1.158e-5
0.545, 1.160e-5
0.546, 1.164e-5
0.547, 1.165e-5
0.548, 1.167e-5
0.549, 1.171e-5
0.550, 1.173e-5
0.551, 1.173e-5
0.552, 1.177e-5
0.553, 1.180e-5
0.554, 1.182e-5
0.555, 1.184e-5
0.556, 1.188e-5
0.557, 1.189e-5
0.558, 1.192e-5
0.559, 1.196e-5
0.560, 1.197e-5
0.561, 1.199e-5
0.562, 1.202e-5
0.563, 1.205e-5
0.564, 1.207e-5
0.565, 1.210e-5
0.566, 1.213e-5
0.567, 1.214e-5
0.568, 1.218e-5
0.569, 1.220e-5
0.570, 1.222e-5
0.571, 1.224e-5
0.572, 1.228e-5
0.573, 1.230e-5
0.574, 1.232e-5
0.575, 1.236e-5
0.576, 1.238e-5
0.577, 1.240e-5
0.578, 1.245e-5
0.579, 1.246e-5
0.580, 1.247e-5
0.581, 1.251e-5
0.582, 1.254e-5
0.583, 1.256e-5
0.584, 1.259e-5
0.585, 1.262e-5
0.586, 1.263e-5
0.587, 1.266e-5
0.588, 1.270e-5
0.589, 1.272e-5
0.590, 1.274e-5
0.591, 1.279e-5
0.592, 1.280e-5
0.593, 1.283e-5
0.594, 1.287e-5
0.595, 1.288e-5
0.596, 1.291e-5
0.597, 1.294e-5
0.598, 1.296e-5
0.599, 1.298e-5
0.600, 1.270e-5
0.599, 1.138e-5
0.598, 1.082e-5
0.597, 1.058e-5
0.596, 1.040e-5
0.595, 1.025e-5
0.594, 1.011e-5
0.593, 9.982e-6
0.592, 9.876e-6
0.591, 9.770e-6
0.590, 9.647e-6
0.589, 9.562e-6
0.588, 9.472e-6
0.587, 9.378e-6
0.586, 9.303e-6
0.585, 9.229e-6
0.584, 9.136e-6
0.583, 9.068e-6
0.582, 9.009e-6
0.581, 8.945e-6
0.580, 8.868e-6
0.579, 8.818e-6
0.578, 8.754e-6
0.577, 8.685e-6
0.576, 8.635e-6
0.575, 8.580e-6
0.574, 8.516e-6
0.573, 8.469e-6
0.572, 8.425e-6
0.571, 8.359e-6
0.570, 8.317e-6
0.569, 8.278e-6
0.568, 8.214e-6
0.567, 8.179e-6
0.566, 8.143e-6
0.565, 8.096e-6
0.564, 8.048e-6
0.563, 8.004e-6
0.562, 7.967e-6
0.561, 7.917e-6
0.560, 7.897e-6
0.559, 7.861e-6
0.558, 7.803e-6
0.557, 7.774e-6
0.556, 7.745e-6
0.555, 7.689e-6
0.554, 7.668e-6
0.553, 7.636e-6
0.552, 7.587e-6
0.551, 7.562e-6
0.550, 7.537e-6
0.549, 7.497e-6
0.548, 7.460e-6
0.547, 7.432e-6
0.546, 7.398e-6
0.545, 7.359e-6
0.544, 7.335e-6
0.543, 7.304e-6
0.542, 7.265e-6
0.541, 7.248e-6
0.540, 7.216e-6
0.539, 7.169e-6
0.538, 7.149e-6
0.537, 7.120e-6
0.536, 7.085e-6
0.535, 7.065e-6
0.534, 7.049e-6
0.533, 7.010e-6
0.532, 6.981e-6
0.531, 6.961e-6
0.530, 6.933e-6
0.529, 6.899e-6
0.528, 6.885e-6
0.527, 6.863e-6
0.526, 6.817e-6
0.525, 6.807e-6
0.524, 6.786e-6
0.523, 6.743e-6
0.522, 6.725e-6
0.521, 6.702e-6
0.520, 6.665e-6
0.519, 6.646e-6
0.518, 6.628e-6
0.517, 6.603e-6
0.516, 6.574e-6
0.515, 6.563e-6
0.514, 6.534e-6
0.513, 6.503e-6
0.512, 6.466e-6
0.511, 6.454e-6
0.510, 6.430e-6
0.509, 6.415e-6
0.508, 6.398e-6
0.507, 6.361e-6
0.506, 6.348e-6
0.505, 6.326e-6
0.504, 6.295e-6
0.503, 6.276e-6
0.502, 6.259e-6
0.501, 6.229e-6
0.500, 6.204e-6
0.499, 6.194e-6
0.498, 6.169e-6
0.497, 6.138e-6
0.496, 6.128e-6
0.495, 6.110e-6
0.494, 6.081e-6
0.493, 6.065e-6
0.492, 6.045e-6
0.491, 6.011e-6
0.490, 6.005e-6
0.489, 5.990e-6
0.488, 5.951e-6
0.487, 5.938e-6
0.486, 5.918e-6
0.485, 5.898e-6
0.484, 5.877e-6
0.483, 5.865e-6
0.482, 5.845e-6
0.481, 5.807e-6
0.480, 5.798e-6
0.479, 5.784e-6
0.478, 5.745e-6
0.477, 5.740e-6
0.476, 5.724e-6
0.475, 5.686e-6
0.474, 5.678e-6
0.473, 5.665e-6
0.472, 5.630e-6
0.471, 5.621e-6
0.470, 5.611e-6
0.469, 5.579e-6
0.468, 5.556e-6
0.467, 5.548e-6
0.466, 5.527e-6
0.465, 5.498e-6
0.464, 5.494e-6
0.463, 5.472e-6
0.462, 5.440e-6
0.461, 5.426e-6
0.460, 5.411e-6
0.459, 5.382e-6
0.458, 5.375e-6
0.457, 5.362e-6
0.456, 5.332e-6
0.455, 5.320e-6
0.454, 5.305e-6
0.453, 5.278e-6
0.452, 5.252e-6
0.451, 5.244e-6
0.450, 5.227e-6
0.449, 5.196e-6
0.448, 5.190e-6
0.447, 5.175e-6
0.446, 5.145e-6
0.445, 5.138e-6
0.444, 5.123e-6
0.443, 5.087e-6
0.442, 5.078e-6
0.441, 5.067e-6
0.440, 5.039e-6
0.439, 5.027e-6
0.438, 5.021e-6
0.437, 4.989e-6
0.436, 4.966e-6
0.435, 4.954e-6
0.434, 4.942e-6
0.433, 4.914e-6
0.432, 4.907e-6
0.431, 4.894e-6
0.430, 4.862e-6
0.429, 4.858e-6
0.428, 4.841e-6
0.427, 4.808e-6
0.426, 4.804e-6
0.425, 4.794e-6
0.424, 4.762e-6
0.423, 4.743e-6
0.422, 4.741e-6
0.421, 4.713e-6
0.420, 4.692e-6
0.419, 4.683e-6
0.418, 4.663e-6
0.417, 4.641e-6
0.416, 4.633e-6
0.415, 4.614e-6
0.414, 4.590e-6
0.413, 4.580e-6
0.412, 4.568e-6
0.411, 4.535e-6
0.410, 4.521e-6
0.409, 4.496e-6
0.408, 4.477e-6
0.407, 4.469e-6
0.406, 4.461e-6
0.405, 4.443e-6
0.404, 4.416e-6
0.403, 4.407e-6
0.402, 4.391e-6
0.401, 4.370e-6
0.400, 4.359e-6
0.399, 4.343e-6
0.398, 4.314e-6
0.397, 4.305e-6
0.396, 4.290e-6
0.395, 4.256e-6
0.394, 4.248e-6
0.393, 4.247e-6
0.392, 4.218e-6
0.391, 4.204e-6
0.390, 4.192e-6
0.389, 4.167e-6
0.388, 4.147e-6
0.387, 4.144e-6
0.386, 4.125e-6
0.385, 4.095e-6
0.384, 4.088e-6
0.383, 4.076e-6
0.382, 4.050e-6
0.381, 4.042e-6
0.380, 4.030e-6
0.379, 4.002e-6
0.378, 3.994e-6
0.377, 3.983e-6
0.376, 3.955e-6
0.375, 3.944e-6
0.374, 3.935e-6
0.373, 3.915e-6
0.372, 3.899e-6
0.371, 3.888e-6
0.370, 3.868e-6
0.369, 3.844e-6
0.368, 3.838e-6
0.367, 3.819e-6
0.366, 3.790e-6
0.365, 3.785e-6
0.364, 3.765e-6
0.363, 3.740e-6
0.362, 3.736e-6
0.361, 3.725e-6
0.360, 3.697e-6
0.359, 3.686e-6
0.358, 3.672e-6
0.357, 3.653e-6
0.356, 3.631e-6
0.355, 3.630e-6
0.354, 3.613e-6
0.353, 3.586e-6
0.352, 3.579e-6
0.351, 3.560e-6
0.350, 3.534e-6
0.349, 3.528e-6
0.348, 3.517e-6
0.347, 3.488e-6
0.346, 3.483e-6
0.345, 3.468e-6
0.344, 3.441e-6
0.343, 3.433e-6
0.342, 3.422e-6
0.341, 3.400e-6
0.340, 3.383e-6
0.339, 3.378e-6
0.338, 3.353e-6
0.337, 3.333e-6
0.336, 3.324e-6
0.335, 3.309e-6
0.334, 3.273e-6
0.333, 3.270e-6
0.332, 3.256e-6
0.331, 3.234e-6
0.330, 3.228e-6
0.329, 3.217e-6
0.328, 3.190e-6
0.327, 3.174e-6
0.326, 3.170e-6
0.325, 3.145e-6
0.324, 3.127e-6
0.323, 3.123e-6
0.322, 3.105e-6
0.321, 3.085e-6
0.320, 3.075e-6
0.319, 3.068e-6
0.318, 3.033e-6
0.317, 3.030e-6
0.316, 3.021e-6
0.315, 2.989e-6
0.314, 2.977e-6
0.313, 2.967e-6
0.312, 2.944e-6
0.311, 2.935e-6
0.310, 2.925e-6
0.309, 2.906e-6
0.308, 2.882e-6
0.307, 2.850e-6
0.306, 2.851e-6
0.305, 2.829e-6
0.304, 2.825e-6
0.303, 2.814e-6
0.302, 2.781e-6
0.301, 2.781e-6
0.300, 2.767e-6
0.299, 2.732e-6
0.298, 2.727e-6
0.297, 2.719e-6
0.296, 2.692e-6
0.295, 2.676e-6
0.294, 2.670e-6
0.293, 2.653e-6
0.292, 2.631e-6
0.291, 2.628e-6
0.290, 2.604e-6
0.289, 2.583e-6
0.288, 2.573e-6
0.287, 2.561e-6
0.286, 2.528e-6
0.285, 2.525e-6
0.284, 2.512e-6
0.283, 2.479e-6
0.282, 2.472e-6
0.281, 2.463e-6
0.280, 2.438e-6
0.279, 2.422e-6
0.278, 2.420e-6
0.277, 2.401e-6
0.276, 2.379e-6
0.275, 2.365e-6
0.274, 2.353e-6
0.273, 2.325e-6
0.272, 2.317e-6
0.271, 2.297e-6
0.270, 2.266e-6
0.269, 2.268e-6
0.268, 2.257e-6
0.267, 2.223e-6
0.266, 2.217e-6
0.265, 2.206e-6
0.264, 2.170e-6
0.263, 2.164e-6
0.262, 2.154e-6
0.261, 2.134e-6
0.260, 2.124e-6
0.259, 2.105e-6
0.258, 2.087e-6
0.257, 2.056e-6
0.256, 2.042e-6
0.255, 2.032e-6
0.254, 2.002e-6
0.253, 2.002e-6
0.252, 1.988e-6
0.251, 1.958e-6
0.250, 1.949e-6
0.249, 1.938e-6
0.248, 1.909e-6
0.247, 1.897e-6
0.246, 1.885e-6
0.245, 1.860e-6
0.244, 1.838e-6
0.243, 1.829e-6
0.242, 1.811e-6
0.241, 1.777e-6
0.240, 1.769e-6
0.239, 1.755e-6
0.238, 1.719e-6
0.237, 1.716e-6
0.236, 1.697e-6
0.235, 1.665e-6
0.234, 1.659e-6
0.233, 1.643e-6
0.232, 1.612e-6
0.231, 1.600e-6
0.230, 1.583e-6
0.229, 1.559e-6
0.228, 1.535e-6
0.227, 1.528e-6
0.226, 1.507e-6
0.225, 1.469e-6
0.224, 1.458e-6
0.223, 1.441e-6
0.222, 1.411e-6
0.221, 1.405e-6
0.220, 1.388e-6
0.219, 1.345e-6
0.218, 1.329e-6
0.217, 1.316e-6
0.216, 1.285e-6
0.215, 1.266e-6
0.214, 1.251e-6
0.213, 1.222e-6
0.212, 1.194e-6
0.211, 1.183e-6
0.210, 1.158e-6
0.209, 1.127e-6
0.208, 1.116e-6
0.207, 1.092e-6
0.206, 1.055e-6
0.205, 1.042e-6
0.204, 1.023e-6
0.203, 9.819e-7
0.202, 9.747e-7
0.201, 9.587e-7
0.200, 9.086e-7
0.199, 8.922e-7
0.198, 8.751e-7
0.197, 8.396e-7
0.196, 8.120e-7
0.195, 7.972e-7
0.194, 7.706e-7
0.193, 7.351e-7
0.192, 7.139e-7
0.191, 6.921e-7
0.190, 6.476e-7
0.189, 6.333e-7
0.188, 6.048e-7
0.187, 5.611e-7
0.186, 5.486e-7
0.185, 5.226e-7
0.184, 4.849e-7
0.183, 4.551e-7
0.182, 4.400e-7
0.181, 4.020e-7
0.180, 3.644e-7
0.179, 3.344e-7
0.178, 3.064e-7
0.177, 2.653e-7
0.176, 2.491e-7
0.175, 2.246e-7
0.174, 1.728e-7
0.173, 1.500e-7
0.172, 1.237e-7
0.171, 7.826e-8
0.170, 5.788e-8
0.169, 2.990e-8
0.168, -9.108e-9
0.167, -4.138e-8
0.166, -5.972e-8
0.165, -1.018e-7
0.164, -1.439e-7
0.163, -1.600e-7
0.162, -2.014e-7
0.161, -2.504e-7
0.160, -2.700e-7
0.159, -2.981e-7
0.158, -3.516e-7
0.157, -3.720e-7
0.156, -3.996e-7
0.155, -4.512e-7
0.154, -4.808e-7
0.153, -5.133e-7
0.152, -5.560e-7
0.151, -5.855e-7
0.150, -6.076e-7
0.149, -6.500e-7
0.148, -6.901e-7
0.147, -7.149e-7
0.146, -7.415e-7
0.145, -7.912e-7
0.144, -8.157e-7
0.143, -8.443e-7
0.142, -8.968e-7
0.141, -9.117e-7
0.140, -9.402e-7
0.139, -9.902e-7
0.138, -1.013e-6
0.137, -1.039e-6
0.136, -1.091e-6
0.135, -1.118e-6
0.134, -1.136e-6
0.133, -1.180e-6
0.132, -1.214e-6
0.131, -1.230e-6
0.130, -1.264e-6
0.129, -1.309e-6
0.128, -1.337e-6
0.127, -1.360e-6
0.126, -1.398e-6
0.125, -1.413e-6
0.124, -1.443e-6
0.123, -1.484e-6
0.122, -1.505e-6
0.121, -1.531e-6
0.120, -1.564e-6
0.119, -1.589e-6
0.118, -1.609e-6
0.117, -1.643e-6
0.116, -1.667e-6
0.115, -1.685e-6
0.114, -1.711e-6
0.113, -1.755e-6
0.112, -1.767e-6
0.111, -1.784e-6
0.110, -1.825e-6
0.109, -1.841e-6
0.108, -1.860e-6
0.107, -1.895e-6
0.106, -1.903e-6
0.105, -1.919e-6
0.104, -1.962e-6
0.103, -1.975e-6
0.102, -2.014e-6
0.101, -2.022e-6
0.100, -2.045e-6
0.099, -2.055e-6
0.098, -2.074e-6
0.097, -2.099e-6
0.096, -2.110e-6
0.095, -2.125e-6
0.094, -2.158e-6
0.093, -2.167e-6
0.092, -2.182e-6
0.091, -2.211e-6
0.090, -2.218e-6
0.089, -2.226e-6
0.088, -2.255e-6
0.087, -2.271e-6
0.086, -2.278e-6
0.085, -2.302e-6
0.084, -2.323e-6
0.083, -2.328e-6
0.082, -2.345e-6
0.081, -2.372e-6
0.080, -2.380e-6
0.079, -2.387e-6
0.078, -2.415e-6
0.077, -2.421e-6
0.076, -2.427e-6
0.075, -2.453e-6
0.074, -2.459e-6
0.073, -2.464e-6
0.072, -2.482e-6
0.071, -2.495e-6
0.070, -2.513e-6
0.069, -2.524e-6
0.068, -2.540e-6
0.067, -2.534e-6
0.066, -2.545e-6
0.065, -2.574e-6
0.064, -2.577e-6
0.063, -2.585e-6
0.062, -2.620e-6
0.061, -2.607e-6
0.060, -2.609e-6
0.059, -2.640e-6
0.058, -2.646e-6
0.057, -2.651e-6
0.056, -2.667e-6
0.055, -2.671e-6
0.054, -2.674e-6
0.053, -2.695e-6
0.052, -2.708e-6
0.051, -2.725e-6
0.050, -2.727e-6
0.049, -2.739e-6
0.048, -2.740e-6
0.047, -2.746e-6
0.046, -2.765e-6
0.045, -2.772e-6
0.044, -2.777e-6
0.043, -2.793e-6
0.042, -2.793e-6
0.041, -2.793e-6
0.040, -2.821e-6
0.039, -2.828e-6
0.038, -2.823e-6
0.037, -2.845e-6
0.036, -2.859e-6
0.035, -2.846e-6
0.034, -2.856e-6
0.033, -2.884e-6
0.032, -2.886e-6
0.031, -2.879e-6
0.030, -2.911e-6
0.029, -2.897e-6
0.028, -2.902e-6
0.027, -2.927e-6
0.026, -2.928e-6
0.025, -2.945e-6
0.024, -2.952e-6
0.023, -2.956e-6
0.022, -2.952e-6
0.021, -2.960e-6
0.020, -2.992e-6
0.019, -2.980e-6
0.018, -2.984e-6
0.017, -3.007e-6
0.016, -3.004e-6
0.015, -3.003e-6
0.014, -3.032e-6
0.013, -3.030e-6
0.012, -3.022e-6
0.011, -3.057e-6
0.010, -3.053e-6
0.009, -3.058e-6
0.008, -3.082e-6
0.007, -3.081e-6
0.006, -3.076e-6
0.005, -3.090e-6
0.004, -3.104e-6
0.003, -3.098e-6
0.002, -3.106e-6
0.001, -3.129e-6
0.000, -3.159e-6
-0.001, -3.159e-6
-0.002, -3.159e-6
-0.003, -3.148e-6
-0.004, -3.150e-6
-0.005, -3.176e-6
-0.006, -3.183e-6
-0.007, -3.176e-6
-0.008, -3.193e-6
-0.009, -3.197e-6
-0.010, -3.198e-6
-0.011, -3.213e-6
-0.012, -3.222e-6
-0.013, -3.218e-6
-0.014, -3.233e-6
-0.015, -3.254e-6
-0.016, -3.244e-6
-0.017, -3.245e-6
-0.018, -3.275e-6
-0.019, -3.273e-6
-0.020, -3.274e-6
-0.021, -3.296e-6
-0.022, -3.304e-6
-0.023, -3.303e-6
-0.024, -3.322e-6
-0.025, -3.325e-6
-0.026, -3.335e-6
-0.027, -3.339e-6
-0.028, -3.355e-6
-0.029, -3.350e-6
-0.030, -3.362e-6
-0.031, -3.382e-6
-0.032, -3.372e-6
-0.033, -3.384e-6
-0.034, -3.403e-6
-0.035, -3.399e-6
-0.036, -3.396e-6
-0.037, -3.434e-6
-0.038, -3.432e-6
-0.039, -3.425e-6
-0.040, -3.449e-6
-0.041, -3.450e-6
-0.042, -3.447e-6
-0.043, -3.465e-6
-0.044, -3.483e-6
-0.045, -3.474e-6
-0.046, -3.486e-6
-0.047, -3.513e-6
-0.048, -3.495e-6
-0.049, -3.516e-6
-0.050, -3.535e-6
-0.051, -3.541e-6
-0.052, -3.547e-6
-0.053, -3.566e-6
-0.054, -3.561e-6
-0.055, -3.557e-6
-0.056, -3.579e-6
-0.057, -3.590e-6
-0.058, -3.591e-6
-0.059, -3.600e-6
-0.060, -3.619e-6
-0.061, -3.618e-6
-0.062, -3.619e-6
-0.063, -3.641e-6
-0.064, -3.638e-6
-0.065, -3.643e-6
-0.066, -3.674e-6
-0.067, -3.670e-6
-0.068, -3.670e-6
-0.069, -3.691e-6
-0.070, -3.694e-6
-0.071, -3.699e-6
-0.072, -3.724e-6
-0.073, -3.728e-6
-0.074, -3.721e-6
-0.075, -3.739e-6
-0.076, -3.754e-6
-0.077, -3.768e-6
-0.078, -3.765e-6
-0.079, -3.787e-6
-0.080, -3.781e-6
-0.081, -3.788e-6
-0.082, -3.817e-6
-0.083, -3.813e-6
-0.084, -3.826e-6
-0.085, -3.847e-6
-0.086, -3.840e-6
-0.087, -3.847e-6
-0.088, -3.871e-6
-0.089, -3.878e-6
-0.090, -3.875e-6
-0.091, -3.896e-6
-0.092, -3.913e-6
-0.093, -3.906e-6
-0.094, -3.921e-6
-0.095, -3.948e-6
-0.096, -3.942e-6
-0.097, -3.954e-6
-0.098, -3.985e-6
-0.099, -3.972e-6
-0.100, -3.974e-6
-0.101, -4.013e-6
-0.102, -4.019e-6
-0.103, -4.048e-6
-0.104, -4.050e-6
-0.105, -4.053e-6
-0.106, -4.052e-6
-0.107, -4.069e-6
-0.108, -4.086e-6
-0.109, -4.091e-6
-0.110, -4.099e-6
-0.111, -4.123e-6
-0.112, -4.121e-6
-0.113, -4.122e-6
-0.114, -4.158e-6
-0.115, -4.158e-6
-0.116, -4.161e-6
-0.117, -4.189e-6
-0.118, -4.187e-6
-0.119, -4.199e-6
-0.120, -4.224e-6
-0.121, -4.235e-6
-0.122, -4.231e-6
-0.123, -4.261e-6
-0.124, -4.280e-6
-0.125, -4.279e-6
-0.126, -4.286e-6
-0.127, -4.312e-6
-0.128, -4.333e-6
-0.129, -4.333e-6
-0.130, -4.360e-6
-0.131, -4.365e-6
-0.132, -4.370e-6
-0.133, -4.399e-6
-0.134, -4.404e-6
-0.135, -4.424e-6
-0.136, -4.445e-6
-0.137, -4.455e-6
-0.138, -4.450e-6
-0.139, -4.481e-6
-0.140, -4.505e-6
-0.141, -4.505e-6
-0.142, -4.516e-6
-0.143, -4.545e-6
-0.144, -4.557e-6
-0.145, -4.563e-6
-0.146, -4.595e-6
-0.147, -4.598e-6
-0.148, -4.613e-6
-0.149, -4.652e-6
-0.150, -4.648e-6
-0.151, -4.663e-6
-0.152, -4.693e-6
-0.153, -4.710e-6
-0.154, -4.722e-6
-0.155, -4.739e-6
-0.156, -4.761e-6
-0.157, -4.767e-6
-0.158, -4.784e-6
-0.159, -4.812e-6
-0.160, -4.820e-6
-0.161, -4.833e-6
-0.162, -4.880e-6
-0.163, -4.885e-6
-0.164, -4.880e-6
-0.165, -4.934e-6
-0.166, -4.936e-6
-0.167, -4.952e-6
-0.168, -4.990e-6
-0.169, -5.004e-6
-0.170, -5.019e-6
-0.171, -5.048e-6
-0.172, -5.071e-6
-0.173, -5.085e-6
-0.174, -5.099e-6
-0.175, -5.142e-6
-0.176, -5.150e-6
-0.177, -5.161e-6
-0.178, -5.203e-6
-0.179, -5.222e-6
-0.180, -5.247e-6
-0.181, -5.288e-6
-0.182, -5.297e-6
-0.183, -5.304e-6
-0.184, -5.348e-6
-0.185, -5.370e-6
-0.186, -5.392e-6
-0.187, -5.418e-6
-0.188, -5.448e-6
-0.189, -5.458e-6
-0.190, -5.494e-6
-0.191, -5.542e-6
-0.192, -5.546e-6
-0.193, -5.565e-6
-0.194, -5.613e-6
-0.195, -5.628e-6
-0.196, -5.649e-6
-0.197, -5.689e-6
-0.198, -5.714e-6
-0.199, -5.741e-6
